Tiempo (s),Datos Seriales
0.0,12.94
0.01,12.0
0.02,10.88
0.03,10.13
0.04,9.38
0.05,8.44
0.06,7.5
0.07,7.13
0.08,6.19
0.09,5.44
0.1,5.06
0.11,4.31
0.12,3.56
0.13,3.0
0.14,2.63
0.15,2.06
0.16,1.5
0.17,0.94
0.18,0.56
0.19,0.0
0.2,-0.37
0.21,-0.94
0.22,-1.12
0.23,-1.69
0.24,-2.06
0.25,-2.44
0.26,-2.63
0.27,-3.19
0.28,-3.38
0.29,-3.75
0.3,-3.94
0.31,-4.5
0.32,-4.88
0.33,-4.88
0.34,-5.06
0.35000000000000003,-5.44
0.36,-5.44
0.37,-6.0
0.38,-6.0
0.39,-6.38
0.4,-6.56
0.41000000000000003,-6.75
0.42,-6.94
0.43,-7.31
0.44,-7.31
0.45,-7.69
0.46,-7.88
0.47000000000000003,-8.06
0.48,-8.25
0.49,-8.25
0.5,-8.63
0.51,-8.81
0.52,-8.81
0.53,-9.0
0.54,-9.19
0.55,-9.38
0.56,-9.38
0.5700000000000001,-9.56
0.58,-9.94
0.59,-9.94
0.6,-10.13
0.61,-10.13
0.62,-10.31
0.63,-10.31
0.64,-10.5
0.65,-10.69
0.66,-10.88
0.67,-10.88
0.68,-10.88
0.6900000000000001,-11.06
0.7000000000000001,-11.06
0.71,-11.25
0.72,-11.44
0.73,-11.63
0.74,-11.63
0.75,-11.63
0.76,-11.63
0.77,-11.81
0.78,-12.0
0.79,-12.0
0.8,-12.19
0.81,-12.19
0.8200000000000001,-12.38
0.8300000000000001,-12.38
0.84,-12.38
0.85,-12.38
0.86,-12.56
0.87,-12.56
0.88,-12.75
0.89,-12.75
0.9,-12.75
0.91,-12.94
0.92,-12.94
0.93,-12.75
0.9400000000000001,-13.13
0.9500000000000001,-12.94
0.96,-13.13
0.97,-13.31
0.98,-13.13
0.99,-13.31
1.0,-13.5
1.01,-13.31
1.02,-13.5
1.03,-13.69
1.04,-13.5
1.05,-13.5
1.06,-13.69
1.07,-13.88
1.08,-13.88
1.09,-13.69
1.1,-13.88
1.11,-13.88
1.12,-13.88
1.1300000000000001,-14.06
1.1400000000000001,-14.06
1.1500000000000001,-14.06
1.16,-14.06
1.17,-14.25
1.18,-14.25
1.19,-14.25
1.2,-14.44
1.21,-14.25
1.22,-14.44
1.23,-14.44
1.24,-14.44
1.25,-14.44
1.26,-14.44
1.27,-14.44
1.28,-14.44
1.29,-14.81
1.3,-14.44
1.31,-14.63
1.32,-14.63
1.33,-14.63
1.34,-14.81
1.35,-14.63
1.36,-14.81
1.37,-14.81
1.3800000000000001,-15.0
1.3900000000000001,-15.0
1.4000000000000001,-15.0
1.41,-14.81
1.42,-15.0
1.43,-15.19
1.44,-14.81
1.45,-15.0
1.46,-15.19
1.47,-15.19
1.48,-15.19
1.49,-15.19
1.5,-15.19
1.51,-15.38
1.52,-15.19
1.53,-15.19
1.54,-15.19
1.55,-15.38
1.56,-15.38
1.57,-15.38
1.58,-15.38
1.59,-15.56
1.6,-15.56
1.61,-15.56
1.62,-15.56
1.6300000000000001,-15.56
1.6400000000000001,-15.56
1.6500000000000001,-15.56
1.6600000000000001,-15.75
1.67,-15.75
1.68,-15.56
1.69,-15.56
1.7,-15.75
1.71,-15.75
1.72,-15.56
1.73,-15.94
1.74,-15.75
1.75,-15.56
1.76,-15.56
1.77,-15.75
1.78,-15.94
1.79,-15.94
1.8,-15.94
1.81,-15.94
1.82,-15.94
1.83,-15.94
1.84,-15.94
1.85,-15.94
1.86,-15.94
1.87,-16.12
1.8800000000000001,-16.12
1.8900000000000001,-15.94
1.9000000000000001,-15.94
1.9100000000000001,-15.94
1.92,-16.12
1.93,-15.94
1.94,-16.12
1.95,-15.94
1.96,-16.12
1.97,-16.12
1.98,-16.31
1.99,-16.31
2.0,-16.12
2.0100000000000002,-16.31
2.02,-16.12
2.0300000000000002,-16.31
2.04,-16.31
2.05,-16.31
2.06,-16.31
2.07,-16.31
2.08,-16.31
2.09,-16.5
2.1,-16.31
2.11,-16.31
2.12,-16.31
2.13,-16.5
2.14,-16.5
2.15,-16.31
2.16,-16.5
2.17,-16.5
2.18,-16.5
2.19,-16.69
2.2,-16.5
2.21,-16.5
2.22,-16.5
2.23,-16.69
2.24,-16.5
2.25,-16.5
2.2600000000000002,-16.5
2.27,-16.69
2.2800000000000002,-16.5
2.29,-16.5
2.3000000000000003,-16.69
2.31,-16.5
2.32,-16.5
2.33,-16.5
2.34,-16.69
2.35,-16.69
2.36,-16.69
2.37,-16.69
2.38,-16.69
2.39,-16.69
2.4,-16.69
2.41,-16.69
2.42,-16.69
2.43,-16.69
2.44,-16.69
2.45,-16.69
2.46,-16.87
2.47,-16.69
2.48,-16.87
2.49,-16.87
2.5,-16.87
2.5100000000000002,-16.87
2.52,-16.69
2.5300000000000002,-16.87
2.54,-16.87
2.5500000000000003,-17.06
2.56,-16.87
2.57,-16.87
2.58,-17.06
2.59,-16.87
2.6,-16.87
2.61,-16.87
2.62,-17.06
2.63,-17.06
2.64,89.25
2.65,238.31
2.66,374.25
2.67,501.94
2.68,622.69
2.69,738.19
2.7,849.38
2.71,956.81
2.72,1060.31
2.73,1161.19
2.74,1258.69
2.75,1353.94
2.7600000000000002,1446.38
2.77,1536.75
2.7800000000000002,1624.88
2.79,1710.75
2.8000000000000003,1794.75
2.81,1877.06
2.82,1957.31
2.83,2035.88
2.84,2112.75
2.85,2187.94
2.86,2262.0
2.87,2334.19
2.88,2404.69
2.89,2474.06
2.9,2541.75
2.91,2608.31
2.92,2673.19
2.93,2736.94
2.94,2799.19
2.95,2860.12
2.96,2919.94
2.97,2978.25
2.98,3035.44
2.99,3091.31
3.0,3145.87
3.0100000000000002,3199.31
3.02,3251.44
3.0300000000000002,3302.62
3.04,3352.31
3.0500000000000003,3400.87
3.06,3448.5
3.0700000000000003,3494.62
3.08,3539.81
3.09,3583.87
3.1,3627.0
3.11,3669.0
3.12,3709.87
3.13,3749.62
3.14,3788.62
3.15,3826.31
3.16,3862.87
3.17,3898.87
3.18,3933.75
3.19,3967.69
3.2,4000.5
3.21,4032.56
3.22,4063.87
3.23,4093.87
3.24,4123.31
3.25,4152.0
3.2600000000000002,4179.56
3.27,4206.37
3.2800000000000002,4232.81
3.29,4257.94
3.3000000000000003,4282.69
3.31,4306.5
3.3200000000000003,4329.56
3.33,4351.87
3.34,4373.62
3.35,4394.81
3.36,4414.87
3.37,4434.75
3.38,4453.87
3.39,4472.25
3.4,4490.44
3.41,4507.5
3.42,4524.56
3.43,4540.69
3.44,4556.25
3.45,4571.44
3.46,4586.06
3.47,4600.5
3.48,4614.19
3.49,4627.31
3.5,4640.44
3.5100000000000002,4652.81
3.52,4664.62
3.5300000000000002,4676.25
3.54,4687.31
3.5500000000000003,4698.19
3.56,4708.5
3.5700000000000003,4718.62
3.58,4728.56
3.59,4737.94
3.6,4746.94
3.61,4755.75
3.62,4764.19
3.63,4772.25
3.64,4780.12
3.65,4788.0
3.66,4795.31
3.67,4802.44
3.68,4809.37
3.69,4815.94
3.7,4822.12
3.71,4828.5
3.72,4834.5
3.73,4840.12
3.74,4845.75
3.75,4851.19
3.7600000000000002,4856.25
3.77,4861.5
3.7800000000000002,4866.19
3.79,4870.87
3.8000000000000003,4875.37
3.81,4879.5
3.8200000000000003,4884.0
3.83,4887.75
3.84,4891.69
3.85,4895.44
3.86,4899.0
3.87,4902.37
3.88,4905.94
3.89,4909.12
3.9,4912.31
3.91,4915.5
3.92,4918.5
3.93,4921.31
3.94,4923.94
3.95,4926.75
3.96,4929.19
3.97,4931.81
3.98,4934.06
3.99,4936.31
4.0,4938.56
4.01,4940.81
4.0200000000000005,4943.06
4.03,4944.94
4.04,4947.0
4.05,4948.87
4.0600000000000005,4950.75
4.07,4952.44
4.08,4954.12
4.09,4955.81
4.1,4957.5
4.11,4959.0
4.12,4960.31
4.13,4961.81
4.14,4963.31
4.15,4964.62
4.16,4966.12
4.17,4967.44
4.18,4968.56
4.19,4969.87
4.2,4971.0
4.21,4971.94
4.22,4973.06
4.23,4974.37
4.24,4975.31
4.25,4976.44
4.26,4977.19
4.2700000000000005,4978.31
4.28,4979.06
4.29,4980.19
4.3,4980.94
4.3100000000000005,4981.69
4.32,4982.44
4.33,4983.19
4.34,4984.12
4.3500000000000005,4984.69
4.36,4985.44
4.37,4986.19
4.38,4986.75
4.39,4987.5
4.4,4988.06
4.41,4988.81
4.42,4989.37
4.43,4989.94
4.44,4990.69
4.45,4991.06
4.46,4991.62
4.47,4992.19
4.48,4992.56
4.49,4992.94
4.5,4993.69
4.51,4994.06
4.5200000000000005,4994.44
4.53,4995.0
4.54,4995.37
4.55,4995.75
4.5600000000000005,4996.12
4.57,4996.5
4.58,4997.06
4.59,4997.44
4.6000000000000005,4997.81
4.61,4998.19
4.62,4998.56
4.63,4999.12
4.64,4999.31
4.65,4999.69
4.66,5000.06
4.67,5000.25
4.68,5000.44
4.69,5000.81
4.7,5001.19
4.71,5001.37
4.72,5001.75
4.73,5002.12
4.74,5002.5
4.75,5002.69
4.76,5002.87
4.7700000000000005,5003.44
4.78,5003.62
4.79,5003.81
4.8,5004.0
4.8100000000000005,5004.19
4.82,5004.37
4.83,5004.56
4.84,5004.75
4.8500000000000005,5004.94
4.86,5005.31
4.87,5005.5
4.88,5005.5
4.89,5005.87
4.9,5006.06
4.91,5006.06
4.92,5006.44
4.93,5006.62
4.94,5006.81
4.95,5007.0
4.96,5007.19
4.97,5007.37
4.98,5007.75
4.99,5007.75
5.0,5007.94
5.01,5008.12
5.0200000000000005,5008.31
5.03,5008.5
5.04,5008.5
5.05,5008.87
5.0600000000000005,5009.06
5.07,5009.06
5.08,5009.25
5.09,5009.62
5.1000000000000005,5009.62
5.11,5009.62
5.12,5009.81
5.13,5010.0
5.14,5010.19
5.15,5010.37
5.16,5010.56
5.17,5010.56
5.18,5010.75
5.19,5010.75
5.2,5010.94
5.21,5010.94
5.22,5011.12
5.23,5011.31
5.24,5011.31
5.25,5011.5
5.26,5011.69
5.2700000000000005,5011.87
5.28,5011.87
5.29,5012.06
5.3,5011.87
5.3100000000000005,5012.44
5.32,5012.25
5.33,5012.62
5.34,5012.62
5.3500000000000005,5012.44
5.36,5012.62
5.37,5012.81
5.38,5012.81
5.39,5013.0
5.4,5013.19
5.41,5013.19
5.42,5013.37
5.43,5013.37
5.44,5013.37
5.45,5013.75
5.46,5013.75
5.47,5013.75
5.48,5013.94
5.49,5013.94
5.5,5014.12
5.51,5013.94
5.5200000000000005,5014.31
5.53,5014.12
5.54,5014.31
5.55,5014.5
5.5600000000000005,5014.5
5.57,5014.5
5.58,5014.69
5.59,5014.87
5.6000000000000005,5015.06
5.61,5014.87
5.62,5015.06
5.63,5015.25
5.64,5015.25
5.65,5015.25
5.66,5015.44
5.67,5015.25
5.68,5015.44
5.69,5015.44
5.7,5015.62
5.71,5015.62
5.72,5015.62
5.73,5015.81
5.74,5015.81
5.75,5016.0
5.76,5016.19
5.7700000000000005,5016.19
5.78,5016.19
5.79,5016.19
5.8,5016.19
5.8100000000000005,5016.37
5.82,5016.37
5.83,5016.37
5.84,5016.37
5.8500000000000005,5016.56
5.86,5016.56
5.87,5016.75
5.88,5016.75
5.89,5016.94
5.9,5016.94
5.91,5016.94
5.92,5017.12
5.93,5017.12
5.94,5016.94
5.95,5017.31
5.96,5017.31
5.97,5017.31
5.98,5017.5
5.99,5017.5
6.0,5017.69
6.01,5017.69
6.0200000000000005,5017.5
6.03,5017.87
6.04,5017.87
6.05,5017.87
6.0600000000000005,5017.87
6.07,5017.87
6.08,5018.25
6.09,5018.06
6.1000000000000005,5018.25
6.11,5018.25
6.12,5018.25
6.13,5018.25
6.140000000000001,5018.25
6.15,5018.25
6.16,5018.25
6.17,5018.44
6.18,5018.44
6.19,5018.44
6.2,5018.62
6.21,5018.81
6.22,5018.62
6.23,5018.81
6.24,5018.81
6.25,5018.62
6.26,5018.81
6.2700000000000005,5018.81
6.28,5019.0
6.29,5018.81
6.3,5019.0
6.3100000000000005,5019.0
6.32,5019.0
6.33,5019.19
6.34,5019.19
6.3500000000000005,5019.19
6.36,5019.19
6.37,5019.37
6.38,5019.19
6.390000000000001,5019.19
6.4,5019.37
6.41,5019.56
6.42,5019.56
6.43,5019.75
6.44,5019.56
6.45,5019.56
6.46,5019.56
6.47,5019.56
6.48,5019.94
6.49,5019.94
6.5,5019.75
6.51,5019.94
6.5200000000000005,5019.75
6.53,5020.12
6.54,5019.94
6.55,5019.94
6.5600000000000005,5020.12
6.57,5020.31
6.58,5020.31
6.59,5020.31
6.6000000000000005,5020.12
6.61,5020.31
6.62,5020.31
6.63,5020.31
6.640000000000001,5020.31
6.65,5020.31
6.66,5020.31
6.67,5020.5
6.68,5020.5
6.69,5020.31
6.7,5020.5
6.71,5020.69
6.72,5020.5
6.73,5020.69
6.74,5020.69
6.75,5020.69
6.76,5020.69
6.7700000000000005,5020.69
6.78,5020.69
6.79,5020.87
6.8,5020.69
6.8100000000000005,5020.87
6.82,5020.69
6.83,5020.87
6.84,5021.06
6.8500000000000005,5021.06
6.86,5020.87
6.87,5021.06
6.88,5021.06
6.890000000000001,5021.25
6.9,5021.06
6.91,5021.06
6.92,5021.25
6.93,5021.25
6.94,5021.25
6.95,5021.25
6.96,5021.44
6.97,5021.25
6.98,5021.44
6.99,5021.44
7.0,5021.25
7.01,5021.44
7.0200000000000005,5021.44
7.03,5021.62
7.04,5021.62
7.05,5021.44
7.0600000000000005,5021.44
7.07,5021.62
7.08,5021.62
7.09,5021.62
7.1000000000000005,5021.62
7.11,5021.62
7.12,5021.81
7.13,5021.62
7.140000000000001,5021.81
7.15,5022.0
7.16,5021.81
7.17,5021.81
7.18,5022.0
7.19,5022.0
7.2,5022.0
7.21,5021.81
7.22,5022.0
7.23,5022.19
7.24,5022.19
7.25,5022.37
7.26,5022.19
7.2700000000000005,5022.37
7.28,5022.19
7.29,5022.37
7.3,5022.37
7.3100000000000005,5022.37
7.32,5022.56
7.33,5022.56
7.34,5022.37
7.3500000000000005,5022.56
7.36,5022.56
7.37,5022.56
7.38,5022.75
7.390000000000001,5022.75
7.4,5022.75
7.41,5022.75
7.42,5022.75
7.43,5022.94
7.44,5022.75
7.45,5022.94
7.46,5022.75
7.47,5022.75
7.48,5022.94
7.49,5022.94
7.5,5022.94
7.51,5022.94
7.5200000000000005,5022.94
7.53,5022.94
7.54,5022.94
7.55,5022.94
7.5600000000000005,5022.94
7.57,5023.12
7.58,5023.12
7.59,5022.94
7.6000000000000005,5023.12
7.61,5023.31
7.62,5023.12
7.63,5023.12
7.640000000000001,5023.31
7.65,5023.31
7.66,5023.31
7.67,5023.31
7.68,5023.5
7.69,5023.31
7.7,5023.5
7.71,5023.5
7.72,5023.31
7.73,5023.5
7.74,5023.5
7.75,5023.5
7.76,5023.31
7.7700000000000005,5023.5
7.78,5023.5
7.79,5023.5
7.8,5023.5
7.8100000000000005,5023.5
7.82,5023.87
7.83,5023.69
7.84,5023.87
7.8500000000000005,5023.69
7.86,5023.69
7.87,5023.69
7.88,5023.87
7.890000000000001,5023.69
7.9,5023.87
7.91,5023.69
7.92,5023.87
7.930000000000001,5024.06
7.94,5023.87
7.95,5023.87
7.96,5024.06
7.97,5024.06
7.98,5024.06
7.99,5024.06
8.0,5024.06
8.01,5024.25
8.02,5024.25
8.03,5024.25
8.040000000000001,5024.06
8.05,5024.25
8.06,5024.06
8.07,5024.06
8.08,5024.25
8.09,5024.25
8.1,5024.25
8.11,5024.25
8.120000000000001,5024.25
8.13,5024.44
8.14,5024.25
8.15,5024.25
8.16,5024.25
8.17,5024.62
8.18,5024.44
8.19,5024.44
8.2,5024.25
8.21,5024.44
8.22,5024.62
8.23,5024.44
8.24,5024.44
8.25,5024.62
8.26,5024.62
8.27,5024.62
8.28,5024.62
8.290000000000001,5024.44
8.3,5024.81
8.31,5024.62
8.32,5024.62
8.33,5024.62
8.34,5024.81
8.35,5024.81
8.36,5024.81
8.370000000000001,5024.81
8.38,5024.81
8.39,5024.81
8.4,5024.81
8.41,5024.62
8.42,5024.81
8.43,5024.81
8.44,5024.81
8.45,5024.81
8.46,5024.62
8.47,5024.81
8.48,5024.81
8.49,5024.62
8.5,5024.81
8.51,5024.81
8.52,5024.81
8.53,5024.81
8.540000000000001,5025.0
8.55,5024.81
8.56,5024.81
8.57,5025.0
8.58,5025.0
8.59,5025.0
8.6,5025.0
8.61,5024.81
8.620000000000001,5025.19
8.63,5025.19
8.64,5025.19
8.65,5025.19
8.66,5025.19
8.67,5025.19
8.68,5025.0
8.69,5025.19
8.700000000000001,5025.19
8.71,5025.19
8.72,5025.19
8.73,5025.19
8.74,5025.19
8.75,5025.19
8.76,5025.19
8.77,5025.37
8.78,5025.37
8.790000000000001,5025.19
8.8,5025.19
8.81,5025.19
8.82,5025.19
8.83,5025.19
8.84,5025.19
8.85,5025.19
8.86,5025.37
8.870000000000001,5025.37
8.88,5025.19
8.89,5025.37
8.9,5025.19
8.91,5025.37
8.92,5025.37
8.93,5025.37
8.94,5025.37
8.950000000000001,5025.37
8.96,5025.56
8.97,5025.37
8.98,5025.37
8.99,5025.56
9.0,5025.37
9.01,5025.56
9.02,5025.37
9.03,5025.37
9.040000000000001,5025.56
9.05,5025.56
9.06,5025.56
9.07,5025.75
9.08,5025.56
9.09,5025.37
9.1,5025.75
9.11,5025.56
9.120000000000001,5025.75
9.13,5025.75
9.14,5025.56
9.15,5025.75
9.16,5025.75
9.17,5025.94
9.18,5025.75
9.19,5025.75
9.200000000000001,5025.75
9.21,5025.94
9.22,5025.56
9.23,5025.75
9.24,5025.56
9.25,5025.75
9.26,5025.75
9.27,5025.56
9.28,5025.75
9.290000000000001,5025.75
9.3,5025.75
9.31,5025.94
9.32,5025.94
9.33,5025.94
9.34,5025.94
9.35,5026.12
9.36,5026.12
9.370000000000001,5025.94
9.38,5025.94
9.39,5025.94
9.4,5025.94
9.41,5026.31
9.42,5026.12
9.43,5026.12
9.44,5026.12
9.450000000000001,5026.31
9.46,5026.12
9.47,5026.31
9.48,5026.31
9.49,5026.12
9.5,5026.31
9.51,5026.12
9.52,5026.12
9.53,5026.31
9.540000000000001,5026.31
9.55,5026.31
9.56,5026.12
9.57,5026.31
9.58,5026.31
9.59,5026.31
9.6,5026.31
9.61,5026.31
9.620000000000001,5026.31
9.63,5026.31
9.64,5026.5
9.65,5026.5
9.66,5026.31
9.67,5026.5
9.68,5026.5
9.69,5026.69
9.700000000000001,5026.5
9.71,5026.5
9.72,5026.31
9.73,5026.5
9.74,5026.5
9.75,5026.69
9.76,5026.5
9.77,5026.69
9.78,5026.69
9.790000000000001,5026.69
9.8,5026.69
9.81,5026.69
9.82,5026.5
9.83,5026.69
9.84,5026.87
9.85,5026.69
9.86,5026.87
9.870000000000001,5026.69
9.88,5026.87
9.89,5026.87
9.9,5026.69
9.91,5026.69
9.92,5026.69
9.93,5026.69
9.94,5026.87
9.950000000000001,5026.69
9.96,5026.87
9.97,5026.87
9.98,5026.87
9.99,5026.69
10.0,5026.87
10.01,5026.87
10.02,5026.87
10.03,5026.87
10.040000000000001,5026.5
10.05,5026.69
10.06,5026.69
10.07,5026.69
10.08,5026.87
10.09,5026.87
10.1,5026.69
10.11,5026.87
10.120000000000001,5027.06
10.13,5027.06
10.14,5026.87
10.15,5026.87
10.16,5026.87
10.17,5027.06
10.18,5026.87
10.19,5026.87
10.200000000000001,5027.06
10.21,5026.87
10.22,5027.06
10.23,5027.06
10.24,5027.06
10.25,5027.06
10.26,5027.06
10.27,5027.25
10.28,5027.25
10.290000000000001,5027.06
10.3,5027.06
10.31,5027.25
10.32,5027.25
10.33,5027.25
10.34,5027.06
10.35,5027.06
10.36,5027.25
10.370000000000001,5027.06
10.38,5027.25
10.39,5027.25
10.4,5027.25
10.41,5027.44
10.42,5027.44
10.43,5027.25
10.44,5027.44
10.450000000000001,5027.44
10.46,5027.44
10.47,5027.25
10.48,5027.25
10.49,5027.25
10.5,5027.25
10.51,5027.44
10.52,5027.25
10.53,5027.25
10.540000000000001,5027.25
10.55,5027.44
10.56,5027.25
10.57,5027.25
10.58,5027.25
10.59,5027.44
10.6,5027.44
10.61,5027.44
10.620000000000001,5027.44
10.63,5027.25
10.64,5027.44
10.65,5027.25
10.66,5027.25
10.67,5027.25
10.68,5027.25
10.69,5027.25
10.700000000000001,5027.25
10.71,5027.25
10.72,5027.25
10.73,5027.25
10.74,5027.25
10.75,5027.44
10.76,5027.25
10.77,5027.44
10.78,5027.44
10.790000000000001,5027.44
10.8,5027.44
10.81,5027.25
10.82,5027.25
10.83,5027.25
10.84,5027.25
10.85,5027.25
10.86,5027.44
10.870000000000001,5027.44
10.88,5027.25
10.89,5027.25
10.9,5027.44
10.91,5027.44
10.92,5027.44
10.93,5027.44
10.94,5027.44
10.950000000000001,5027.44
10.96,5027.44
10.97,5027.62
10.98,5027.44
10.99,5027.62
11.0,5027.62
11.01,5027.62
11.02,5027.44
11.03,5027.44
11.040000000000001,5027.62
11.05,5027.44
11.06,5027.62
11.07,5027.62
11.08,5027.62
11.09,5027.44
11.1,5027.44
11.11,5027.62
11.120000000000001,5027.81
11.13,5027.62
11.14,5027.81
11.15,5027.81
11.16,5027.62
11.17,5027.62
11.18,5027.81
11.19,5027.81
11.200000000000001,5027.81
11.21,5027.62
11.22,5027.62
11.23,5027.62
11.24,5027.44
11.25,5027.81
11.26,5027.62
11.27,5027.62
11.28,5027.62
11.290000000000001,5027.62
11.3,5027.81
11.31,5027.62
11.32,5027.81
11.33,5027.62
11.34,5027.62
11.35,5027.81
11.36,5027.62
11.370000000000001,5027.81
11.38,5027.81
11.39,5027.81
11.4,5027.81
11.41,5027.62
11.42,5027.81
11.43,5028.0
11.44,5027.81
11.450000000000001,5028.0
11.46,5027.81
11.47,5028.0
11.48,5027.81
11.49,5028.0
11.5,5028.19
11.51,5028.0
11.52,5028.0
11.53,5028.0
11.540000000000001,5028.0
11.55,5028.19
11.56,5028.0
11.57,5028.0
11.58,5028.0
11.59,5027.81
11.6,5028.0
11.61,5028.0
11.620000000000001,5027.81
11.63,5028.19
11.64,5028.19
11.65,5028.0
11.66,5028.0
11.67,5028.0
11.68,5028.0
11.69,5028.0
11.700000000000001,5028.19
11.71,5028.0
11.72,5028.19
11.73,5028.19
11.74,5028.19
11.75,5028.0
11.76,5028.0
11.77,5028.0
11.78,5028.0
11.790000000000001,5028.19
11.8,5028.19
11.81,5028.19
11.82,5028.19
11.83,5028.37
11.84,5028.37
11.85,5028.37
11.86,5028.37
11.870000000000001,5028.37
11.88,5028.37
11.89,5028.37
11.9,5028.37
11.91,5028.37
11.92,5028.56
11.93,5028.56
11.94,5028.37
11.950000000000001,5028.75
11.96,5028.56
11.97,5028.56
11.98,5028.56
11.99,5028.56
12.0,5028.56
12.01,5028.56
12.02,5028.56
12.030000000000001,5028.37
12.040000000000001,5028.37
12.05,5028.56
12.06,5028.56
12.07,5028.56
12.08,5028.56
12.09,5028.56
12.1,5028.56
12.11,5028.56
12.120000000000001,5028.37
12.13,5028.56
12.14,5028.37
12.15,5028.56
12.16,5028.37
12.17,5028.37
12.18,5028.56
12.19,5028.37
12.200000000000001,5028.37
12.21,5028.37
12.22,5028.37
12.23,5028.37
12.24,5028.37
12.25,5028.56
12.26,5028.37
12.27,5028.37
12.280000000000001,5028.56
12.290000000000001,5028.56
12.3,5028.56
12.31,5028.56
12.32,5028.37
12.33,5028.56
12.34,5028.56
12.35,5028.56
12.36,5028.56
12.370000000000001,5028.37
12.38,5028.56
12.39,5028.56
12.4,5028.56
12.41,5028.56
12.42,5028.56
12.43,5028.56
12.44,5028.56
12.450000000000001,5028.75
12.46,5028.56
12.47,5028.56
12.48,5028.75
12.49,5028.75
12.5,5028.75
12.51,5028.75
12.52,5028.75
12.530000000000001,5028.75
12.540000000000001,5028.75
12.55,5028.75
12.56,5028.75
12.57,5028.75
12.58,5028.56
12.59,5028.75
12.6,5028.75
12.61,5028.75
12.620000000000001,5028.75
12.63,5028.75
12.64,5028.75
12.65,5028.94
12.66,5028.75
12.67,5028.94
12.68,5028.75
12.69,5028.75
12.700000000000001,5028.94
12.71,5028.75
12.72,5028.75
12.73,5028.75
12.74,5028.75
12.75,5028.94
12.76,5028.75
12.77,5028.94
12.780000000000001,5028.94
12.790000000000001,5028.94
12.8,5028.94
12.81,5028.75
12.82,5028.75
12.83,5029.12
12.84,5028.94
12.85,5028.94
12.86,5028.94
12.870000000000001,5028.94
12.88,5028.94
12.89,5028.75
12.9,5028.75
12.91,5028.94
12.92,5028.94
12.93,5029.12
12.94,5028.75
12.950000000000001,5028.94
12.96,5028.94
12.97,5028.75
12.98,5028.94
12.99,5029.12
13.0,5028.75
13.01,5028.94
13.02,5028.94
13.030000000000001,5028.94
13.040000000000001,5028.94
13.05,5028.94
13.06,5028.94
13.07,5028.94
13.08,5028.75
13.09,5028.94
13.1,5028.75
13.11,5028.94
13.120000000000001,5028.94
13.13,5028.94
13.14,5028.75
13.15,5028.94
13.16,5028.75
13.17,5028.94
13.18,5028.94
13.19,5028.94
13.200000000000001,5028.94
13.21,5028.94
13.22,5028.94
13.23,5029.12
13.24,5028.94
13.25,5028.94
13.26,5028.94
13.27,5028.94
13.280000000000001,5028.94
13.290000000000001,5028.94
13.3,5028.94
13.31,5028.94
13.32,5028.94
13.33,5028.94
13.34,5028.94
13.35,5029.12
13.36,5028.94
13.370000000000001,5028.94
13.38,5029.12
13.39,5029.12
13.4,5029.12
13.41,5028.94
13.42,5028.94
13.43,5028.94
13.44,5029.12
13.450000000000001,5028.94
13.46,5029.12
13.47,5029.12
13.48,5029.12
13.49,5028.94
13.5,5028.94
13.51,5029.12
13.52,5029.12
13.530000000000001,5029.12
13.540000000000001,5028.94
13.55,5029.12
13.56,5029.12
13.57,5029.12
13.58,5029.12
13.59,5029.12
13.6,5029.31
13.61,5029.12
13.620000000000001,5029.31
13.63,5029.12
13.64,5029.31
13.65,5029.12
13.66,5029.31
