Time,Signal
0.0,0.0
0.009999999999999787,89.25
0.020000000000000018,238.31
0.029999999999999805,374.25
0.040000000000000036,501.94
0.04999999999999982,622.69
0.06000000000000005,738.19
0.06999999999999984,849.38
0.08000000000000007,956.81
0.08999999999999986,1060.31
0.10000000000000009,1161.19
0.10999999999999988,1258.69
0.11999999999999966,1353.94
0.1299999999999999,1446.38
0.13999999999999968,1536.75
0.1499999999999999,1624.88
0.16000000000000014,1710.75
0.16999999999999993,1794.75
0.17999999999999972,1877.06
0.18999999999999995,1957.31
0.19999999999999973,2035.88
0.20999999999999996,2112.75
0.21999999999999975,2187.94
0.22999999999999998,2262.0
0.23999999999999977,2334.19
0.25,2404.69
0.2599999999999998,2474.06
0.27,2541.75
0.2799999999999998,2608.31
0.29000000000000004,2673.19
0.2999999999999998,2736.94
0.31000000000000005,2799.19
0.31999999999999984,2860.12
0.33000000000000007,2919.94
0.33999999999999986,2978.25
0.3500000000000001,3035.44
0.3599999999999999,3091.31
0.36999999999999966,3145.87
0.3799999999999999,3199.31
0.3899999999999997,3251.44
0.3999999999999999,3302.62
0.41000000000000014,3352.31
0.41999999999999993,3400.87
0.43000000000000016,3448.5
0.43999999999999995,3494.62
0.44999999999999973,3539.81
0.45999999999999996,3583.87
0.46999999999999975,3627.0
0.48,3669.0
0.48999999999999977,3709.87
0.5,3749.62
0.5099999999999998,3788.62
0.52,3826.31
0.5299999999999998,3862.87
0.54,3898.87
0.5499999999999998,3933.75
0.56,3967.69
0.5699999999999998,4000.5
0.5800000000000001,4032.56
0.5899999999999999,4063.87
0.6000000000000001,4093.87
0.6099999999999999,4123.31
0.6199999999999997,4152.0
0.6299999999999999,4179.56
0.6399999999999997,4206.37
0.6499999999999999,4232.81
0.6600000000000001,4257.94
0.6699999999999999,4282.69
0.6800000000000002,4306.5
0.69,4329.56
0.6999999999999997,4351.87
0.71,4373.62
0.7199999999999998,4394.81
0.73,4414.87
0.7399999999999998,4434.75
0.75,4453.87
0.7599999999999998,4472.25
0.77,4490.44
0.7799999999999998,4507.5
0.79,4524.56
0.7999999999999998,4540.69
0.81,4556.25
0.8199999999999998,4571.44
0.8300000000000001,4586.06
0.8399999999999999,4600.5
0.8500000000000001,4614.19
0.8599999999999999,4627.31
0.8699999999999997,4640.44
0.8799999999999999,4652.81
0.8899999999999997,4664.62
0.8999999999999999,4676.25
0.9100000000000001,4687.31
0.9199999999999999,4698.19
0.9300000000000002,4708.5
0.94,4718.62
0.9499999999999997,4728.56
0.96,4737.94
0.9699999999999998,4746.94
0.98,4755.75
0.9899999999999998,4764.19
1.0,4772.25
1.0099999999999998,4780.12
1.02,4788.0
1.0299999999999998,4795.31
1.04,4802.44
1.0499999999999998,4809.37
1.06,4815.94
1.0699999999999998,4822.12
1.08,4828.5
1.0899999999999999,4834.5
1.1,4840.12
1.1099999999999999,4845.75
1.1199999999999997,4851.19
1.13,4856.25
1.1399999999999997,4861.5
1.15,4866.19
1.1599999999999997,4870.87
1.17,4875.37
1.1799999999999997,4879.5
1.19,4884.0
1.1999999999999997,4887.75
1.21,4891.69
1.2199999999999998,4895.44
1.23,4899.0
1.2399999999999998,4902.37
1.25,4905.94
1.2599999999999998,4909.12
1.27,4912.31
1.2799999999999998,4915.5
1.29,4918.5
1.2999999999999998,4921.31
1.31,4923.94
1.3199999999999998,4926.75
1.33,4929.19
1.3399999999999999,4931.81
1.35,4934.06
1.3599999999999999,4936.31
1.3699999999999997,4938.56
1.3800000000000003,4940.81
1.3900000000000001,4943.06
1.4,4944.94
1.4099999999999997,4947.0
1.4200000000000004,4948.87
1.4300000000000002,4950.75
1.44,4952.44
1.4499999999999997,4954.12
1.4599999999999995,4955.81
1.4700000000000002,4957.5
1.48,4959.0
1.4899999999999998,4960.31
1.4999999999999996,4961.81
1.5100000000000002,4963.31
1.52,4964.62
1.5299999999999998,4966.12
1.5399999999999996,4967.44
1.5500000000000003,4968.56
1.56,4969.87
1.5699999999999998,4971.0
1.5799999999999996,4971.94
1.5900000000000003,4973.06
1.6,4974.37
1.6099999999999999,4975.31
1.6199999999999997,4976.44
1.6300000000000003,4977.19
1.6400000000000001,4978.31
1.65,4979.06
1.6599999999999997,4980.19
1.6700000000000004,4980.94
1.6800000000000002,4981.69
1.69,4982.44
1.6999999999999997,4983.19
1.7100000000000004,4984.12
1.7200000000000002,4984.69
1.73,4985.44
1.7399999999999998,4986.19
1.7499999999999996,4986.75
1.7600000000000002,4987.5
1.77,4988.06
1.7799999999999998,4988.81
1.7899999999999996,4989.37
1.8000000000000003,4989.94
1.81,4990.69
1.8199999999999998,4991.06
1.8299999999999996,4991.62
1.8400000000000003,4992.19
1.85,4992.56
1.8599999999999999,4992.94
1.8699999999999997,4993.69
1.8800000000000003,4994.06
1.8900000000000001,4994.44
1.9,4995.0
1.9099999999999997,4995.37
1.9200000000000004,4995.75
1.9300000000000002,4996.12
1.94,4996.5
1.9499999999999997,4997.06
1.9600000000000004,4997.44
1.9700000000000002,4997.81
1.98,4998.19
1.9899999999999998,4998.56
1.9999999999999996,4999.12
2.0100000000000002,4999.31
2.02,4999.69
2.03,5000.06
2.0399999999999996,5000.25
2.0500000000000003,5000.44
2.06,5000.81
2.07,5001.19
2.0799999999999996,5001.37
2.0900000000000003,5001.75
2.1,5002.12
2.11,5002.5
2.1199999999999997,5002.69
2.1300000000000003,5002.87
2.14,5003.44
2.15,5003.62
2.1599999999999997,5003.81
2.1700000000000004,5004.0
2.18,5004.19
2.19,5004.37
2.1999999999999997,5004.56
2.2100000000000004,5004.75
2.22,5004.94
2.23,5005.31
2.2399999999999998,5005.5
2.2499999999999996,5005.5
2.2600000000000002,5005.87
2.27,5006.06
2.28,5006.06
2.2899999999999996,5006.44
2.3000000000000003,5006.62
2.31,5006.81
2.32,5007.0
2.3299999999999996,5007.19
2.3400000000000003,5007.37
2.35,5007.75
2.36,5007.75
2.3699999999999997,5007.94
2.3800000000000003,5008.12
2.39,5008.31
2.4,5008.5
2.4099999999999997,5008.5
2.4200000000000004,5008.87
2.43,5009.06
2.44,5009.06
2.4499999999999997,5009.25
2.4600000000000004,5009.62
2.47,5009.62
2.48,5009.62
2.4899999999999998,5009.81
2.4999999999999996,5010.0
2.5100000000000002,5010.19
2.52,5010.37
2.53,5010.56
2.5399999999999996,5010.56
2.5500000000000003,5010.75
2.56,5010.75
2.57,5010.94
2.5799999999999996,5010.94
2.5900000000000003,5011.12
2.6,5011.31
2.61,5011.31
2.6199999999999997,5011.5
2.6300000000000003,5011.69
2.64,5011.87
2.65,5011.87
2.6599999999999997,5012.06
2.6700000000000004,5011.87
2.68,5012.44
2.69,5012.25
2.6999999999999997,5012.62
2.7100000000000004,5012.62
2.72,5012.44
2.73,5012.62
2.7399999999999998,5012.81
2.7499999999999996,5012.81
2.7600000000000002,5013.0
2.77,5013.19
2.78,5013.19
2.7899999999999996,5013.37
2.8000000000000003,5013.37
2.81,5013.37
2.82,5013.75
2.8299999999999996,5013.75
2.8400000000000003,5013.75
2.85,5013.94
2.86,5013.94
2.8699999999999997,5014.12
2.8800000000000003,5013.94
2.89,5014.31
2.9,5014.12
2.9099999999999997,5014.31
2.9200000000000004,5014.5
2.93,5014.5
2.94,5014.5
2.9499999999999997,5014.69
2.9600000000000004,5014.87
2.97,5015.06
2.98,5014.87
2.9899999999999998,5015.06
2.9999999999999996,5015.25
3.0100000000000002,5015.25
3.02,5015.25
3.03,5015.44
3.0399999999999996,5015.25
3.0500000000000003,5015.44
3.06,5015.44
3.07,5015.62
3.0799999999999996,5015.62
3.0900000000000003,5015.62
3.1,5015.81
3.11,5015.81
3.1199999999999997,5016.0
3.1300000000000003,5016.19
3.14,5016.19
3.15,5016.19
3.1599999999999997,5016.19
3.1700000000000004,5016.19
3.18,5016.37
3.19,5016.37
3.1999999999999997,5016.37
3.2100000000000004,5016.37
3.22,5016.56
3.23,5016.56
3.2399999999999998,5016.75
3.2499999999999996,5016.75
3.2600000000000002,5016.94
3.27,5016.94
3.28,5016.94
3.2899999999999996,5017.12
3.3000000000000003,5017.12
3.31,5016.94
3.32,5017.31
3.3299999999999996,5017.31
3.3400000000000003,5017.31
3.35,5017.5
3.36,5017.5
3.3699999999999997,5017.69
3.3800000000000003,5017.69
3.39,5017.5
3.4,5017.87
3.4099999999999997,5017.87
3.4200000000000004,5017.87
3.43,5017.87
3.44,5017.87
3.4499999999999997,5018.25
3.4600000000000004,5018.06
3.47,5018.25
3.48,5018.25
3.4899999999999998,5018.25
3.5000000000000004,5018.25
3.5100000000000002,5018.25
3.52,5018.25
3.53,5018.25
3.5399999999999996,5018.44
3.5500000000000003,5018.44
3.56,5018.44
3.57,5018.62
3.5799999999999996,5018.81
3.5900000000000003,5018.62
3.6,5018.81
3.61,5018.81
3.6199999999999997,5018.62
3.6300000000000003,5018.81
3.64,5018.81
3.65,5019.0
3.6599999999999997,5018.81
3.6700000000000004,5019.0
3.68,5019.0
3.69,5019.0
3.6999999999999997,5019.19
3.7100000000000004,5019.19
3.72,5019.19
3.73,5019.19
3.7399999999999998,5019.37
3.7500000000000004,5019.19
3.7600000000000002,5019.19
3.77,5019.37
3.78,5019.56
3.7899999999999996,5019.56
3.8000000000000003,5019.75
3.81,5019.56
3.82,5019.56
3.8299999999999996,5019.56
3.8400000000000003,5019.56
3.85,5019.94
3.86,5019.94
3.8699999999999997,5019.75
3.8800000000000003,5019.94
3.89,5019.75
3.9,5020.12
3.9099999999999997,5019.94
3.9200000000000004,5019.94
3.93,5020.12
3.94,5020.31
3.9499999999999997,5020.31
3.9600000000000004,5020.31
3.97,5020.12
3.98,5020.31
3.9899999999999998,5020.31
4.0,5020.31
4.01,5020.31
4.02,5020.31
4.029999999999999,5020.31
4.039999999999999,5020.5
4.050000000000001,5020.5
4.0600000000000005,5020.31
4.07,5020.5
4.08,5020.69
4.09,5020.5
4.1,5020.69
4.109999999999999,5020.69
4.119999999999999,5020.69
4.130000000000001,5020.69
4.140000000000001,5020.69
4.15,5020.69
4.16,5020.87
4.17,5020.69
4.18,5020.87
4.1899999999999995,5020.69
4.199999999999999,5020.87
4.210000000000001,5021.06
4.220000000000001,5021.06
4.23,5020.87
4.24,5021.06
4.25,5021.06
4.26,5021.25
4.27,5021.06
4.279999999999999,5021.06
4.289999999999999,5021.25
4.300000000000001,5021.25
4.3100000000000005,5021.25
4.32,5021.25
4.33,5021.44
4.34,5021.25
4.35,5021.44
4.359999999999999,5021.44
4.369999999999999,5021.25
4.380000000000001,5021.44
4.390000000000001,5021.44
4.4,5021.62
4.41,5021.62
4.42,5021.44
4.43,5021.44
4.4399999999999995,5021.62
4.449999999999999,5021.62
4.460000000000001,5021.62
4.470000000000001,5021.62
4.48,5021.62
4.49,5021.81
4.5,5021.62
4.51,5021.81
4.52,5022.0
4.529999999999999,5021.81
4.539999999999999,5021.81
4.550000000000001,5022.0
4.5600000000000005,5022.0
4.57,5022.0
4.58,5021.81
4.59,5022.0
4.6,5022.19
4.609999999999999,5022.19
4.619999999999999,5022.37
4.629999999999999,5022.19
4.640000000000001,5022.37
4.65,5022.19
4.66,5022.37
4.67,5022.37
4.68,5022.37
4.6899999999999995,5022.56
4.699999999999999,5022.56
4.709999999999999,5022.37
4.720000000000001,5022.56
4.73,5022.56
4.74,5022.56
4.75,5022.75
4.76,5022.75
4.77,5022.75
4.779999999999999,5022.75
4.789999999999999,5022.75
4.800000000000001,5022.94
4.8100000000000005,5022.75
4.82,5022.94
4.83,5022.75
4.84,5022.75
4.85,5022.94
4.859999999999999,5022.94
4.869999999999999,5022.94
4.879999999999999,5022.94
4.890000000000001,5022.94
4.9,5022.94
4.91,5022.94
4.92,5022.94
4.93,5022.94
4.9399999999999995,5023.12
4.949999999999999,5023.12
4.959999999999999,5022.94
4.970000000000001,5023.12
4.98,5023.31
4.99,5023.12
5.0,5023.12
5.01,5023.31
5.02,5023.31
5.029999999999999,5023.31
5.039999999999999,5023.31
5.050000000000001,5023.5
5.0600000000000005,5023.31
5.07,5023.5
5.08,5023.5
5.09,5023.31
5.1,5023.5
5.109999999999999,5023.5
5.119999999999999,5023.5
5.129999999999999,5023.31
5.140000000000001,5023.5
5.15,5023.5
5.16,5023.5
5.17,5023.5
5.18,5023.5
5.1899999999999995,5023.87
5.199999999999999,5023.69
5.209999999999999,5023.87
5.220000000000001,5023.69
5.23,5023.69
5.24,5023.69
5.25,5023.87
5.26,5023.69
5.27,5023.87
5.279999999999999,5023.69
5.290000000000001,5023.87
5.300000000000001,5024.06
5.3100000000000005,5023.87
5.32,5023.87
5.33,5024.06
5.34,5024.06
5.35,5024.06
5.359999999999999,5024.06
5.369999999999999,5024.06
5.379999999999999,5024.25
5.389999999999999,5024.25
5.4,5024.25
5.41,5024.06
5.42,5024.25
5.43,5024.06
5.4399999999999995,5024.06
5.449999999999999,5024.25
5.459999999999999,5024.25
5.469999999999999,5024.25
5.48,5024.25
5.49,5024.25
5.5,5024.44
5.51,5024.25
5.52,5024.25
5.529999999999999,5024.25
5.539999999999999,5024.62
5.549999999999999,5024.44
5.559999999999999,5024.44
5.57,5024.25
5.58,5024.44
5.59,5024.62
5.6,5024.44
5.609999999999999,5024.44
5.619999999999999,5024.62
5.629999999999999,5024.62
5.639999999999999,5024.62
5.65,5024.62
5.66,5024.44
5.67,5024.81
5.68,5024.62
5.6899999999999995,5024.62
5.699999999999999,5024.62
5.709999999999999,5024.81
5.719999999999999,5024.81
5.73,5024.81
5.74,5024.81
5.75,5024.81
5.76,5024.81
5.77,5024.81
5.779999999999999,5024.62
5.789999999999999,5024.81
5.799999999999999,5024.81
5.809999999999999,5024.81
5.82,5024.81
5.83,5024.62
5.84,5024.81
5.85,5024.81
5.859999999999999,5024.62
5.869999999999999,5024.81
5.879999999999999,5024.81
5.889999999999999,5024.81
5.9,5024.81
5.91,5025.0
5.92,5024.81
5.93,5024.81
5.9399999999999995,5025.0
5.949999999999999,5025.0
5.959999999999999,5025.0
5.969999999999999,5025.0
5.98,5024.81
5.99,5025.19
6.0,5025.19
6.01,5025.19
6.02,5025.19
6.029999999999999,5025.19
6.039999999999999,5025.19
6.049999999999999,5025.0
6.0600000000000005,5025.19
6.07,5025.19
6.08,5025.19
6.09,5025.19
6.1,5025.19
6.109999999999999,5025.19
6.119999999999999,5025.19
6.129999999999999,5025.19
6.139999999999999,5025.37
6.15,5025.37
6.16,5025.19
6.17,5025.19
6.18,5025.19
6.1899999999999995,5025.19
6.199999999999999,5025.19
6.209999999999999,5025.19
6.219999999999999,5025.19
6.23,5025.37
6.24,5025.37
6.25,5025.19
6.26,5025.37
6.27,5025.19
6.279999999999999,5025.37
6.289999999999999,5025.37
6.299999999999999,5025.37
6.3100000000000005,5025.37
6.32,5025.37
6.33,5025.56
6.34,5025.37
6.35,5025.37
6.359999999999999,5025.56
6.369999999999999,5025.37
6.379999999999999,5025.56
6.389999999999999,5025.37
6.399999999999999,5025.37
6.41,5025.56
6.42,5025.56
6.43,5025.56
6.4399999999999995,5025.75
6.449999999999999,5025.56
6.459999999999999,5025.37
6.469999999999999,5025.75
6.479999999999999,5025.56
6.49,5025.75
6.5,5025.75
6.51,5025.56
6.52,5025.75
6.529999999999999,5025.75
6.539999999999999,5025.94
6.549999999999999,5025.75
6.559999999999999,5025.75
6.57,5025.75
6.58,5025.94
6.59,5025.56
6.6,5025.75
6.609999999999999,5025.56
6.619999999999999,5025.75
6.629999999999999,5025.75
6.639999999999999,5025.56
6.649999999999999,5025.75
6.66,5025.75
6.67,5025.75
6.68,5025.94
6.6899999999999995,5025.94
6.699999999999999,5025.94
6.709999999999999,5025.94
6.719999999999999,5026.12
6.729999999999999,5026.12
6.74,5025.94
6.75,5025.94
6.76,5025.94
6.77,5025.94
6.779999999999999,5026.31
6.789999999999999,5026.12
6.799999999999999,5026.12
6.809999999999999,5026.12
6.82,5026.31
6.83,5026.12
6.84,5026.31
6.85,5026.31
6.859999999999999,5026.12
6.869999999999999,5026.31
6.879999999999999,5026.12
6.889999999999999,5026.12
6.899999999999999,5026.31
6.91,5026.31
6.92,5026.31
6.93,5026.12
6.9399999999999995,5026.31
6.949999999999999,5026.31
6.959999999999999,5026.31
6.969999999999999,5026.31
6.979999999999999,5026.31
6.99,5026.31
7.0,5026.31
7.01,5026.5
7.02,5026.5
7.029999999999999,5026.31
7.039999999999999,5026.5
7.049999999999999,5026.5
7.059999999999999,5026.69
7.07,5026.5
7.08,5026.5
7.09,5026.31
7.1,5026.5
7.109999999999999,5026.5
7.119999999999999,5026.69
7.129999999999999,5026.5
7.139999999999999,5026.69
7.149999999999999,5026.69
7.16,5026.69
7.17,5026.69
7.18,5026.69
7.1899999999999995,5026.5
7.199999999999999,5026.69
7.209999999999999,5026.87
7.219999999999999,5026.69
7.229999999999999,5026.87
7.24,5026.69
7.25,5026.87
7.26,5026.87
7.27,5026.69
7.279999999999999,5026.69
7.289999999999999,5026.69
7.299999999999999,5026.69
7.309999999999999,5026.87
7.32,5026.69
7.33,5026.87
7.34,5026.87
7.35,5026.87
7.359999999999999,5026.69
7.369999999999999,5026.87
7.379999999999999,5026.87
7.389999999999999,5026.87
7.399999999999999,5026.87
7.41,5026.5
7.42,5026.69
7.43,5026.69
7.4399999999999995,5026.69
7.449999999999999,5026.87
7.459999999999999,5026.87
7.469999999999999,5026.69
7.479999999999999,5026.87
7.49,5027.06
7.5,5027.06
7.51,5026.87
7.52,5026.87
7.529999999999999,5026.87
7.539999999999999,5027.06
7.549999999999999,5026.87
7.559999999999999,5026.87
7.57,5027.06
7.58,5026.87
7.59,5027.06
7.6,5027.06
7.609999999999999,5027.06
7.619999999999999,5027.06
7.629999999999999,5027.06
7.639999999999999,5027.25
7.649999999999999,5027.25
7.66,5027.06
7.67,5027.06
7.68,5027.25
7.6899999999999995,5027.25
7.699999999999999,5027.25
7.709999999999999,5027.06
7.719999999999999,5027.06
7.729999999999999,5027.25
7.74,5027.06
7.75,5027.25
7.76,5027.25
7.77,5027.25
7.779999999999999,5027.44
7.789999999999999,5027.44
7.799999999999999,5027.25
7.809999999999999,5027.44
7.82,5027.44
7.83,5027.44
7.84,5027.25
7.85,5027.25
7.859999999999999,5027.25
7.869999999999999,5027.25
7.879999999999999,5027.44
7.889999999999999,5027.25
7.899999999999999,5027.25
7.91,5027.25
7.92,5027.44
7.93,5027.25
7.9399999999999995,5027.25
7.949999999999999,5027.25
7.959999999999999,5027.44
7.969999999999999,5027.44
7.979999999999999,5027.44
7.99,5027.44
8.0,5027.25
8.01,5027.44
8.02,5027.25
8.03,5027.25
8.04,5027.25
8.049999999999999,5027.25
8.059999999999999,5027.25
8.07,5027.25
8.08,5027.25
8.09,5027.25
8.1,5027.25
8.11,5027.25
8.12,5027.44
8.129999999999999,5027.25
8.139999999999999,5027.44
8.149999999999999,5027.44
8.16,5027.44
8.17,5027.44
8.18,5027.25
8.19,5027.25
8.2,5027.25
8.209999999999999,5027.25
8.219999999999999,5027.25
8.229999999999999,5027.44
8.24,5027.44
8.25,5027.25
8.26,5027.25
8.27,5027.44
8.28,5027.44
8.29,5027.44
8.299999999999999,5027.44
8.309999999999999,5027.44
8.32,5027.44
8.33,5027.44
8.34,5027.62
8.35,5027.44
8.36,5027.62
8.37,5027.62
8.379999999999999,5027.62
8.389999999999999,5027.44
8.399999999999999,5027.44
8.41,5027.62
8.42,5027.44
8.43,5027.62
8.44,5027.62
8.45,5027.62
8.459999999999999,5027.44
8.469999999999999,5027.44
8.479999999999999,5027.62
8.49,5027.81
8.5,5027.62
8.51,5027.81
8.52,5027.81
8.53,5027.62
8.54,5027.62
8.549999999999999,5027.81
8.559999999999999,5027.81
8.57,5027.81
8.58,5027.62
8.59,5027.62
8.6,5027.62
8.61,5027.44
8.62,5027.81
8.629999999999999,5027.62
8.639999999999999,5027.62
8.649999999999999,5027.62
8.66,5027.62
8.67,5027.81
8.68,5027.62
8.69,5027.81
8.7,5027.62
8.709999999999999,5027.62
8.719999999999999,5027.81
8.729999999999999,5027.62
8.74,5027.81
8.75,5027.81
8.76,5027.81
8.77,5027.81
8.78,5027.62
8.79,5027.81
8.799999999999999,5028.0
8.809999999999999,5027.81
8.82,5028.0
8.83,5027.81
8.84,5028.0
8.85,5027.81
8.86,5028.0
8.87,5028.19
8.879999999999999,5028.0
8.889999999999999,5028.0
8.899999999999999,5028.0
8.91,5028.0
8.92,5028.19
8.93,5028.0
8.94,5028.0
8.95,5028.0
8.959999999999999,5027.81
8.969999999999999,5028.0
8.979999999999999,5028.0
8.99,5027.81
9.0,5028.19
9.01,5028.19
9.02,5028.0
9.03,5028.0
9.04,5028.0
9.049999999999999,5028.0
9.059999999999999,5028.0
9.07,5028.19
9.08,5028.0
9.09,5028.19
9.1,5028.19
9.11,5028.19
9.12,5028.0
9.129999999999999,5028.0
9.139999999999999,5028.0
9.149999999999999,5028.0
9.16,5028.19
9.17,5028.19
9.18,5028.19
9.19,5028.19
9.2,5028.37
9.209999999999999,5028.37
9.219999999999999,5028.37
9.229999999999999,5028.37
9.24,5028.37
9.25,5028.37
9.26,5028.37
9.27,5028.37
9.28,5028.37
9.29,5028.56
9.299999999999999,5028.56
9.309999999999999,5028.37
9.32,5028.75
9.33,5028.56
9.34,5028.56
9.35,5028.56
9.36,5028.56
9.37,5028.56
9.379999999999999,5028.56
9.389999999999999,5028.56
9.399999999999999,5028.37
9.41,5028.37
9.42,5028.56
9.43,5028.56
9.44,5028.56
9.45,5028.56
9.459999999999999,5028.56
9.469999999999999,5028.56
9.479999999999999,5028.56
9.49,5028.37
9.5,5028.56
9.51,5028.37
9.52,5028.56
9.53,5028.37
9.54,5028.37
9.549999999999999,5028.56
9.559999999999999,5028.37
9.57,5028.37
9.58,5028.37
9.59,5028.37
9.6,5028.37
9.61,5028.37
9.62,5028.56
9.629999999999999,5028.37
9.639999999999999,5028.37
9.649999999999999,5028.56
9.66,5028.56
9.67,5028.56
9.68,5028.56
9.69,5028.37
9.7,5028.56
9.709999999999999,5028.56
9.719999999999999,5028.56
9.729999999999999,5028.56
9.74,5028.37
9.75,5028.56
9.76,5028.56
9.77,5028.56
9.78,5028.56
9.79,5028.56
9.799999999999999,5028.56
9.809999999999999,5028.56
9.82,5028.75
9.83,5028.56
9.84,5028.56
9.85,5028.75
9.86,5028.75
9.87,5028.75
9.879999999999999,5028.75
9.889999999999999,5028.75
9.899999999999999,5028.75
9.91,5028.75
9.92,5028.75
9.93,5028.75
9.94,5028.75
9.95,5028.56
9.959999999999999,5028.75
9.969999999999999,5028.75
9.979999999999999,5028.75
9.99,5028.75
10.0,5028.75
10.01,5028.75
